# Pulseq sequence file
# Created by MATLAB mr toolbox

[VERSION]
major 1
minor 4
revision 1

[DEFINITIONS]
AdcRasterTime 1e-07 
BlockDurationRaster 1e-05 
GradientRasterTime 1e-05 
Name selectiveRf 
RadiofrequencyRasterTime 1e-06 
TotalDuration 128.00768 

# Format of blocks:
# NUM DUR RF  GX  GY  GZ  ADC  EXT
[BLOCKS]
   1 831   1   1   2   0  0  0
   2 644   0   0   0   0  0  0
   3 200   0   0   0   3  0  0
   4 315   2   0   0   4  0  0
   5 200   0   0   0   3  0  0
   6 121   0   0   0   0  0  0
   7 200   0   5   6   0  0  0
   8 646   0   7   0   0  1  0
   9 46846   0   0   0   0  0  0
  10 831   1   1   2   0  0  0
  11 644   0   0   0   0  0  0
  12 200   0   0   0   3  0  0
  13 315   2   0   0   4  0  0
  14 200   0   0   0   3  0  0
  15 121   0   0   0   0  0  0
  16 200   0   5   8   0  0  0
  17 646   0   7   0   0  1  0
  18 46846   0   0   0   0  0  0
  19 831   1   1   2   0  0  0
  20 644   0   0   0   0  0  0
  21 200   0   0   0   3  0  0
  22 315   2   0   0   4  0  0
  23 200   0   0   0   3  0  0
  24 121   0   0   0   0  0  0
  25 200   0   5   9   0  0  0
  26 646   0   7   0   0  1  0
  27 46846   0   0   0   0  0  0
  28 831   1   1   2   0  0  0
  29 644   0   0   0   0  0  0
  30 200   0   0   0   3  0  0
  31 315   2   0   0   4  0  0
  32 200   0   0   0   3  0  0
  33 121   0   0   0   0  0  0
  34 200   0   5  10   0  0  0
  35 646   0   7   0   0  1  0
  36 46846   0   0   0   0  0  0
  37 831   1   1   2   0  0  0
  38 644   0   0   0   0  0  0
  39 200   0   0   0   3  0  0
  40 315   2   0   0   4  0  0
  41 200   0   0   0   3  0  0
  42 121   0   0   0   0  0  0
  43 200   0   5  11   0  0  0
  44 646   0   7   0   0  1  0
  45 46846   0   0   0   0  0  0
  46 831   1   1   2   0  0  0
  47 644   0   0   0   0  0  0
  48 200   0   0   0   3  0  0
  49 315   2   0   0   4  0  0
  50 200   0   0   0   3  0  0
  51 121   0   0   0   0  0  0
  52 200   0   5  12   0  0  0
  53 646   0   7   0   0  1  0
  54 46846   0   0   0   0  0  0
  55 831   1   1   2   0  0  0
  56 644   0   0   0   0  0  0
  57 200   0   0   0   3  0  0
  58 315   2   0   0   4  0  0
  59 200   0   0   0   3  0  0
  60 121   0   0   0   0  0  0
  61 200   0   5  13   0  0  0
  62 646   0   7   0   0  1  0
  63 46846   0   0   0   0  0  0
  64 831   1   1   2   0  0  0
  65 644   0   0   0   0  0  0
  66 200   0   0   0   3  0  0
  67 315   2   0   0   4  0  0
  68 200   0   0   0   3  0  0
  69 121   0   0   0   0  0  0
  70 200   0   5  14   0  0  0
  71 646   0   7   0   0  1  0
  72 46846   0   0   0   0  0  0
  73 831   1   1   2   0  0  0
  74 644   0   0   0   0  0  0
  75 200   0   0   0   3  0  0
  76 315   2   0   0   4  0  0
  77 200   0   0   0   3  0  0
  78 121   0   0   0   0  0  0
  79 200   0   5  15   0  0  0
  80 646   0   7   0   0  1  0
  81 46846   0   0   0   0  0  0
  82 831   1   1   2   0  0  0
  83 644   0   0   0   0  0  0
  84 200   0   0   0   3  0  0
  85 315   2   0   0   4  0  0
  86 200   0   0   0   3  0  0
  87 121   0   0   0   0  0  0
  88 200   0   5  16   0  0  0
  89 646   0   7   0   0  1  0
  90 46846   0   0   0   0  0  0
  91 831   1   1   2   0  0  0
  92 644   0   0   0   0  0  0
  93 200   0   0   0   3  0  0
  94 315   2   0   0   4  0  0
  95 200   0   0   0   3  0  0
  96 121   0   0   0   0  0  0
  97 200   0   5  17   0  0  0
  98 646   0   7   0   0  1  0
  99 46846   0   0   0   0  0  0
 100 831   1   1   2   0  0  0
 101 644   0   0   0   0  0  0
 102 200   0   0   0   3  0  0
 103 315   2   0   0   4  0  0
 104 200   0   0   0   3  0  0
 105 121   0   0   0   0  0  0
 106 200   0   5  18   0  0  0
 107 646   0   7   0   0  1  0
 108 46846   0   0   0   0  0  0
 109 831   1   1   2   0  0  0
 110 644   0   0   0   0  0  0
 111 200   0   0   0   3  0  0
 112 315   2   0   0   4  0  0
 113 200   0   0   0   3  0  0
 114 121   0   0   0   0  0  0
 115 200   0   5  19   0  0  0
 116 646   0   7   0   0  1  0
 117 46846   0   0   0   0  0  0
 118 831   1   1   2   0  0  0
 119 644   0   0   0   0  0  0
 120 200   0   0   0   3  0  0
 121 315   2   0   0   4  0  0
 122 200   0   0   0   3  0  0
 123 121   0   0   0   0  0  0
 124 200   0   5  20   0  0  0
 125 646   0   7   0   0  1  0
 126 46846   0   0   0   0  0  0
 127 831   1   1   2   0  0  0
 128 644   0   0   0   0  0  0
 129 200   0   0   0   3  0  0
 130 315   2   0   0   4  0  0
 131 200   0   0   0   3  0  0
 132 121   0   0   0   0  0  0
 133 200   0   5  21   0  0  0
 134 646   0   7   0   0  1  0
 135 46846   0   0   0   0  0  0
 136 831   1   1   2   0  0  0
 137 644   0   0   0   0  0  0
 138 200   0   0   0   3  0  0
 139 315   2   0   0   4  0  0
 140 200   0   0   0   3  0  0
 141 121   0   0   0   0  0  0
 142 200   0   5  22   0  0  0
 143 646   0   7   0   0  1  0
 144 46846   0   0   0   0  0  0
 145 831   1   1   2   0  0  0
 146 644   0   0   0   0  0  0
 147 200   0   0   0   3  0  0
 148 315   2   0   0   4  0  0
 149 200   0   0   0   3  0  0
 150 121   0   0   0   0  0  0
 151 200   0   5  23   0  0  0
 152 646   0   7   0   0  1  0
 153 46846   0   0   0   0  0  0
 154 831   1   1   2   0  0  0
 155 644   0   0   0   0  0  0
 156 200   0   0   0   3  0  0
 157 315   2   0   0   4  0  0
 158 200   0   0   0   3  0  0
 159 121   0   0   0   0  0  0
 160 200   0   5  24   0  0  0
 161 646   0   7   0   0  1  0
 162 46846   0   0   0   0  0  0
 163 831   1   1   2   0  0  0
 164 644   0   0   0   0  0  0
 165 200   0   0   0   3  0  0
 166 315   2   0   0   4  0  0
 167 200   0   0   0   3  0  0
 168 121   0   0   0   0  0  0
 169 200   0   5  25   0  0  0
 170 646   0   7   0   0  1  0
 171 46846   0   0   0   0  0  0
 172 831   1   1   2   0  0  0
 173 644   0   0   0   0  0  0
 174 200   0   0   0   3  0  0
 175 315   2   0   0   4  0  0
 176 200   0   0   0   3  0  0
 177 121   0   0   0   0  0  0
 178 200   0   5  26   0  0  0
 179 646   0   7   0   0  1  0
 180 46846   0   0   0   0  0  0
 181 831   1   1   2   0  0  0
 182 644   0   0   0   0  0  0
 183 200   0   0   0   3  0  0
 184 315   2   0   0   4  0  0
 185 200   0   0   0   3  0  0
 186 121   0   0   0   0  0  0
 187 200   0   5  27   0  0  0
 188 646   0   7   0   0  1  0
 189 46846   0   0   0   0  0  0
 190 831   1   1   2   0  0  0
 191 644   0   0   0   0  0  0
 192 200   0   0   0   3  0  0
 193 315   2   0   0   4  0  0
 194 200   0   0   0   3  0  0
 195 121   0   0   0   0  0  0
 196 200   0   5  28   0  0  0
 197 646   0   7   0   0  1  0
 198 46846   0   0   0   0  0  0
 199 831   1   1   2   0  0  0
 200 644   0   0   0   0  0  0
 201 200   0   0   0   3  0  0
 202 315   2   0   0   4  0  0
 203 200   0   0   0   3  0  0
 204 121   0   0   0   0  0  0
 205 200   0   5  29   0  0  0
 206 646   0   7   0   0  1  0
 207 46846   0   0   0   0  0  0
 208 831   1   1   2   0  0  0
 209 644   0   0   0   0  0  0
 210 200   0   0   0   3  0  0
 211 315   2   0   0   4  0  0
 212 200   0   0   0   3  0  0
 213 121   0   0   0   0  0  0
 214 200   0   5  30   0  0  0
 215 646   0   7   0   0  1  0
 216 46846   0   0   0   0  0  0
 217 831   1   1   2   0  0  0
 218 644   0   0   0   0  0  0
 219 200   0   0   0   3  0  0
 220 315   2   0   0   4  0  0
 221 200   0   0   0   3  0  0
 222 121   0   0   0   0  0  0
 223 200   0   5  31   0  0  0
 224 646   0   7   0   0  1  0
 225 46846   0   0   0   0  0  0
 226 831   1   1   2   0  0  0
 227 644   0   0   0   0  0  0
 228 200   0   0   0   3  0  0
 229 315   2   0   0   4  0  0
 230 200   0   0   0   3  0  0
 231 121   0   0   0   0  0  0
 232 200   0   5  32   0  0  0
 233 646   0   7   0   0  1  0
 234 46846   0   0   0   0  0  0
 235 831   1   1   2   0  0  0
 236 644   0   0   0   0  0  0
 237 200   0   0   0   3  0  0
 238 315   2   0   0   4  0  0
 239 200   0   0   0   3  0  0
 240 121   0   0   0   0  0  0
 241 200   0   5  33   0  0  0
 242 646   0   7   0   0  1  0
 243 46846   0   0   0   0  0  0
 244 831   1   1   2   0  0  0
 245 644   0   0   0   0  0  0
 246 200   0   0   0   3  0  0
 247 315   2   0   0   4  0  0
 248 200   0   0   0   3  0  0
 249 121   0   0   0   0  0  0
 250 200   0   5  34   0  0  0
 251 646   0   7   0   0  1  0
 252 46846   0   0   0   0  0  0
 253 831   1   1   2   0  0  0
 254 644   0   0   0   0  0  0
 255 200   0   0   0   3  0  0
 256 315   2   0   0   4  0  0
 257 200   0   0   0   3  0  0
 258 121   0   0   0   0  0  0
 259 200   0   5  35   0  0  0
 260 646   0   7   0   0  1  0
 261 46846   0   0   0   0  0  0
 262 831   1   1   2   0  0  0
 263 644   0   0   0   0  0  0
 264 200   0   0   0   3  0  0
 265 315   2   0   0   4  0  0
 266 200   0   0   0   3  0  0
 267 121   0   0   0   0  0  0
 268 200   0   5  36   0  0  0
 269 646   0   7   0   0  1  0
 270 46846   0   0   0   0  0  0
 271 831   1   1   2   0  0  0
 272 644   0   0   0   0  0  0
 273 200   0   0   0   3  0  0
 274 315   2   0   0   4  0  0
 275 200   0   0   0   3  0  0
 276 121   0   0   0   0  0  0
 277 200   0   5  37   0  0  0
 278 646   0   7   0   0  1  0
 279 46846   0   0   0   0  0  0
 280 831   1   1   2   0  0  0
 281 644   0   0   0   0  0  0
 282 200   0   0   0   3  0  0
 283 315   2   0   0   4  0  0
 284 200   0   0   0   3  0  0
 285 121   0   0   0   0  0  0
 286 200   0   5  38   0  0  0
 287 646   0   7   0   0  1  0
 288 46846   0   0   0   0  0  0
 289 831   1   1   2   0  0  0
 290 644   0   0   0   0  0  0
 291 200   0   0   0   3  0  0
 292 315   2   0   0   4  0  0
 293 200   0   0   0   3  0  0
 294 121   0   0   0   0  0  0
 295 200   0   5  39   0  0  0
 296 646   0   7   0   0  1  0
 297 46846   0   0   0   0  0  0
 298 831   1   1   2   0  0  0
 299 644   0   0   0   0  0  0
 300 200   0   0   0   3  0  0
 301 315   2   0   0   4  0  0
 302 200   0   0   0   3  0  0
 303 121   0   0   0   0  0  0
 304 200   0   5  40   0  0  0
 305 646   0   7   0   0  1  0
 306 46846   0   0   0   0  0  0
 307 831   1   1   2   0  0  0
 308 644   0   0   0   0  0  0
 309 200   0   0   0   3  0  0
 310 315   2   0   0   4  0  0
[RF]
1      24.0788 1 2 0 100 0 0
2      658.303 5 6 0 100 0 0

# Format of arbitrary gradients:
#   time_shape_id of 0 means default timing (stepping with grad_raster starting at 1/2 of grad_raster)
# id amplitude amp_shape_id time_shape_id delay
# ..      Hz/m       ..         ..          us
[GRADIENTS]
1       376328 3 0 0
2      -250848 4 0 0

# Format of trapezoid gradients:
# id amplitude rise flat fall delay
# ..      Hz/m   us   us   us    us
[TRAP]
 3       612089  90 1820  90   0
 4       266667  50 3000  50  50
 5      -299767  50 1900  50   0
 6      -298368  50 1900  50   0
 7       181818  30 6400  30   0
 8      -296037  50 1900  50   0
 9      -293706  50 1900  50   0
10      -291375  50 1900  50   0
11      -287570  40 1920  40   0
12      -285250  40 1920  40   0
13      -282931  40 1920  40   0
14      -280612  40 1920  40   0
15      -278293  40 1920  40   0
16      -275974  40 1920  40   0
17      -273655  40 1920  40   0
18      -271336  40 1920  40   0
19      -269017  40 1920  40   0
20      -266698  40 1920  40   0
21      -264378  40 1920  40   0
22      -262059  40 1920  40   0
23      -259740  40 1920  40   0
24      -257421  40 1920  40   0
25      -255102  40 1920  40   0
26      -252783  40 1920  40   0
27      -250464  40 1920  40   0
28      -248145  40 1920  40   0
29      -245826  40 1920  40   0
30      -243506  40 1920  40   0
31      -241187  40 1920  40   0
32      -238868  40 1920  40   0
33      -236549  40 1920  40   0
34      -234230  40 1920  40   0
35      -231911  40 1920  40   0
36      -229592  40 1920  40   0
37      -227273  40 1920  40   0
38      -224954  40 1920  40   0
39      -222635  40 1920  40   0
40      -220315  40 1920  40   0
41      -216890  30 1940  30   0
42      -214582  30 1940  30   0
43      -212275  30 1940  30   0
44      -209968  30 1940  30   0
45      -207660  30 1940  30   0
46      -205353  30 1940  30   0
47      -203046  30 1940  30   0
48      -200738  30 1940  30   0
49      -198431  30 1940  30   0
50      -196124  30 1940  30   0
51      -193816  30 1940  30   0
52      -191509  30 1940  30   0
53      -189202  30 1940  30   0
54      -186894  30 1940  30   0
55      -184587  30 1940  30   0
56      -182280  30 1940  30   0
57      -179972  30 1940  30   0
58      -177665  30 1940  30   0
59      -175358  30 1940  30   0
60      -173050  30 1940  30   0
61      -170743  30 1940  30   0
62      -168436  30 1940  30   0
63      -166128  30 1940  30   0
64      -163821  30 1940  30   0
65      -161514  30 1940  30   0
66      -159206  30 1940  30   0
67      -156899  30 1940  30   0
68      -154592  30 1940  30   0
69      -152284  30 1940  30   0
70      -149977  30 1940  30   0
71      -147670  30 1940  30   0
72      -144628  20 1960  20   0
73      -142332  20 1960  20   0
74      -140037  20 1960  20   0
75      -137741  20 1960  20   0
76      -135445  20 1960  20   0
77      -133150  20 1960  20   0
78      -130854  20 1960  20   0
79      -128558  20 1960  20   0
80      -126263  20 1960  20   0
81      -123967  20 1960  20   0
82      -121671  20 1960  20   0
83      -119376  20 1960  20   0
84      -117080  20 1960  20   0
85      -114784  20 1960  20   0
86      -112489  20 1960  20   0
87      -110193  20 1960  20   0
88      -107897  20 1960  20   0
89      -105601  20 1960  20   0
90      -103306  20 1960  20   0
91      -101010  20 1960  20   0
92     -98714.4  20 1960  20   0
93     -96418.7  20 1960  20   0
94       -94123  20 1960  20   0
95     -91827.4  20 1960  20   0
96     -89531.7  20 1960  20   0
97       -87236  20 1960  20   0
98     -84940.3  20 1960  20   0
99     -82644.6  20 1960  20   0
100     -80348.9  20 1960  20   0
101     -78053.3  20 1960  20   0
102     -75757.6  20 1960  20   0
103     -73461.9  20 1960  20   0
104     -70808.6  10 1980  10   0
105     -68524.4  10 1980  10   0
106     -66240.3  10 1980  10   0
107     -63956.1  10 1980  10   0
108       -61672  10 1980  10   0
109     -59387.8  10 1980  10   0
110     -57103.7  10 1980  10   0
111     -54819.6  10 1980  10   0
112     -52535.4  10 1980  10   0
113     -50251.3  10 1980  10   0
114     -47967.1  10 1980  10   0
115       -45683  10 1980  10   0
116     -43398.8  10 1980  10   0
117     -41114.7  10 1980  10   0
118     -38830.5  10 1980  10   0
119     -36546.4  10 1980  10   0
120     -34262.2  10 1980  10   0
121     -31978.1  10 1980  10   0
122     -29693.9  10 1980  10   0
123     -27409.8  10 1980  10   0
124     -25125.6  10 1980  10   0
125     -22841.5  10 1980  10   0
126     -20557.3  10 1980  10   0
127     -18273.2  10 1980  10   0
128       -15989  10 1980  10   0
129     -13704.9  10 1980  10   0
130     -11420.7  10 1980  10   0
131     -9136.59  10 1980  10   0
132     -6852.44  10 1980  10   0
133      -4568.3  10 1980  10   0
134     -2284.15  10 1980  10   0
135            0  10 1980  10   0
136      2284.15  10 1980  10   0
137       4568.3  10 1980  10   0
138      6852.44  10 1980  10   0
139      9136.59  10 1980  10   0
140      11420.7  10 1980  10   0
141      13704.9  10 1980  10   0
142        15989  10 1980  10   0
143      18273.2  10 1980  10   0
144      20557.3  10 1980  10   0
145      22841.5  10 1980  10   0
146      25125.6  10 1980  10   0
147      27409.8  10 1980  10   0
148      29693.9  10 1980  10   0
149      31978.1  10 1980  10   0
150      34262.2  10 1980  10   0
151      36546.4  10 1980  10   0
152      38830.5  10 1980  10   0
153      41114.7  10 1980  10   0
154      43398.8  10 1980  10   0
155        45683  10 1980  10   0
156      47967.1  10 1980  10   0
157      50251.3  10 1980  10   0
158      52535.4  10 1980  10   0
159      54819.6  10 1980  10   0
160      57103.7  10 1980  10   0
161      59387.8  10 1980  10   0
162        61672  10 1980  10   0
163      63956.1  10 1980  10   0
164      66240.3  10 1980  10   0
165      68524.4  10 1980  10   0
166      70808.6  10 1980  10   0
167      73461.9  20 1960  20   0
168      75757.6  20 1960  20   0
169      78053.3  20 1960  20   0
170      80348.9  20 1960  20   0
171      82644.6  20 1960  20   0
172      84940.3  20 1960  20   0
173        87236  20 1960  20   0
174      89531.7  20 1960  20   0
175      91827.4  20 1960  20   0
176        94123  20 1960  20   0
177      96418.7  20 1960  20   0
178      98714.4  20 1960  20   0
179       101010  20 1960  20   0
180       103306  20 1960  20   0
181       105601  20 1960  20   0
182       107897  20 1960  20   0
183       110193  20 1960  20   0
184       112489  20 1960  20   0
185       114784  20 1960  20   0
186       117080  20 1960  20   0
187       119376  20 1960  20   0
188       121671  20 1960  20   0
189       123967  20 1960  20   0
190       126263  20 1960  20   0
191       128558  20 1960  20   0
192       130854  20 1960  20   0
193       133150  20 1960  20   0
194       135445  20 1960  20   0
195       137741  20 1960  20   0
196       140037  20 1960  20   0
197       142332  20 1960  20   0
198       144628  20 1960  20   0
199       147670  30 1940  30   0
200       149977  30 1940  30   0
201       152284  30 1940  30   0
202       154592  30 1940  30   0
203       156899  30 1940  30   0
204       159206  30 1940  30   0
205       161514  30 1940  30   0
206       163821  30 1940  30   0
207       166128  30 1940  30   0
208       168436  30 1940  30   0
209       170743  30 1940  30   0
210       173050  30 1940  30   0
211       175358  30 1940  30   0
212       177665  30 1940  30   0
213       179972  30 1940  30   0
214       182280  30 1940  30   0
215       184587  30 1940  30   0
216       186894  30 1940  30   0
217       189202  30 1940  30   0
218       191509  30 1940  30   0
219       193816  30 1940  30   0
220       196124  30 1940  30   0
221       198431  30 1940  30   0
222       200738  30 1940  30   0
223       203046  30 1940  30   0
224       205353  30 1940  30   0
225       207660  30 1940  30   0
226       209968  30 1940  30   0
227       212275  30 1940  30   0
228       214582  30 1940  30   0
229       216890  30 1940  30   0
230       220315  40 1920  40   0
231       222635  40 1920  40   0
232       224954  40 1920  40   0
233       227273  40 1920  40   0
234       229592  40 1920  40   0
235       231911  40 1920  40   0
236       234230  40 1920  40   0
237       236549  40 1920  40   0
238       238868  40 1920  40   0
239       241187  40 1920  40   0
240       243506  40 1920  40   0
241       245826  40 1920  40   0
242       248145  40 1920  40   0
243       250464  40 1920  40   0
244       252783  40 1920  40   0
245       255102  40 1920  40   0
246       257421  40 1920  40   0
247       259740  40 1920  40   0
248       262059  40 1920  40   0
249       264378  40 1920  40   0
250       266698  40 1920  40   0
251       269017  40 1920  40   0
252       271336  40 1920  40   0
253       273655  40 1920  40   0
254       275974  40 1920  40   0
255       278293  40 1920  40   0
256       280612  40 1920  40   0
257       282931  40 1920  40   0
258       285250  40 1920  40   0
259       287570  40 1920  40   0
260       291375  50 1900  50   0
261       293706  50 1900  50   0
262       296037  50 1900  50   0

# Format of ADC events:
# id num dwell delay freq phase
# ..  ..    ns    us   Hz   rad
[ADC]
1 256 25000 30 0 0

# Sequence Shapes
[SHAPES]

shape_id 1
num_samples 8180
0
0
168
0.0855119
1.5e-05
-0.0001046
-0.0002244
-0.0003439
-0.0004633
-0.0005821
-0.0007004
-0.000818
-0.0009345
-0.00105
-0.0010706
-0.0011678
-0.0012638
-0.0013584
-0.0014516
-0.0015431
-0.001633
-0.001721
-0.0018072
-0.0018912
-0.0018035
-0.001871
-0.0019369
-0.0020008
-0.0020629
-0.002123
-0.002181
-0.0022369
-0.0022907
-0.0023422
-0.0021629
-0.0022019
-0.0022393
-0.0022748
-0.0023085
-0.0023403
-0.0023702
-0.0023982
-0.0024243
-0.0024484
-0.0022043
-0.002221
-0.0022361
-0.0022497
-0.002262
-0.0022727
-0.0022819
-0.0022897
-0.0022958
0.0001664
0.0020207
0.0020225
0.0020234
0.0020231
0.0020219
0.0020195
0.0020163
0.0020118
0.0020064
0.002
0.0017093
0.0017037
0.0016972
0.0016903
0.0016825
0.0016743
0.0016653
0.0016558
0.0016454
0.0016347
0.0013515
0.0013436
0.0013354
0.0013269
0.0013179
0.0013086
0.001299
0.0012889
0.0012786
0.0012679
0.0010029
0.0009962
0.0009893
0.0009822
0.0009751
0.0009677
0.0009601
0.0009523
0.0009445
0.0009365
0.000693
0.0006889
0.0006847
0.0006804
0.0006761
0.0006717
0.0006672
0.0006627
0.0006581
0.0006534
0.0004296
0.0004279
0.0004263
0.0004246
0.000423
0.0004213
0.0004196
0.0004178
0.0004162
0.0004143
0.000204
0.0002038
0.0002038
0
0.0002036
0.0002035
0.0002034
0.0002032
0.0002032
0
0.000203
0.0002029
-2.6e-06
-2.8e-06
-2.9e-06
-3.1e-06
-3.2e-06
-3.4e-06
-3.6e-06
-3.7e-06
-3.9e-06
-4.1e-06
-0.0002143
-0.0002163
-0.0002182
-0.0002202
-0.0002221
-0.0002241
-0.0002261
-0.000228
-0.0002299
-0.0002319
-0.0004563
-0.0004617
-0.000467
-0.0004724
-0.0004776
-0.000483
-0.0004882
-0.0004935
-0.0004987
-0.0005039
-0.0007501
-0.0007601
-0.0007698
-0.0007796
-0.0007891
-0.0007987
-0.0008081
-0.0008175
-0.0008267
-0.0008359
-0.0011086
-0.001123
-0.0011371
-0.0011512
-0.0011649
-0.0011784
-0.0011916
-0.0012047
-0.0012176
-0.00123
-0.0015285
-0.0015459
-0.0015627
-0.0015791
-0.0015951
-0.0016105
-0.0016255
-0.0016399
-0.0016538
-0.0016673
-0.0019837
-0.0020001
-0.0020158
-0.0020305
-0.0020442
-0.0020573
-0.0020692
-0.0020804
-0.0020906
-0.0020999
-0.0024183
-0.0024273
-0.0024349
-0.002441
0.0003199
0.0024491
0.0024511
0.0024516
0.0024505
0.0024482
0.0027437
0.0027361
0.0027267
0.0027152
0.0027015
0.002686
0.0026684
0.0026487
0.0026271
0.0026035
0.0028447
0.0028102
0.0027733
0.0027337
0.0026917
0.002647
0.0026
0.0025505
0.0024987
0.0024443
0.0025976
0.0025269
0.0024535
0.0023771
0.0022983
0.0022167
0.0021327
0.0020461
0.0019574
0.0018661
0.0019037
0.0017921
0.0016782
0.0015619
0.0014435
0.0013231
0.0012008
0.0010768
0.0009513
0.0008242
0.0007336
0.0005856
0.0004364
0.0002865
0.0001357
-1.53e-05
-0.0001667
-0.000318
-0.0004692
-0.0006199
-0.000827
-0.0009948
-0.0011612
-0.0013262
-0.0014891
-0.00165
-0.0018085
-0.0019643
-0.0021173
-0.002267
-0.0025497
-0.0027076
-0.0028609
-0.0030092
-0.0031525
-0.0032903
-0.0034225
-0.0035487
-0.0036689
-0.0037826
-0.0040752
-0.0041844
-0.0042856
-0.0043787
-0.0044631
-0.0045392
-0.0046063
-0.0046645
-0.0047137
-0.0047537
-0.0049784
-0.0050009
0.0016945
0.005014
0.0050046
0.0049846
0.0049539
0.0049127
0.004861
0.0047989
0.0048881
0.004799
0.0046989
0.004588
0.0044664
0.0043345
0.0041924
0.0040408
0.0038795
0.0037093
0.0036296
0.0034307
0.0032232
0.0030074
0.0027842
0.0025538
0.0023169
0.0020741
0.0018257
0.0015727
0.0013423
0.0010683
0.000791
0.0005114
0.00023
-5.26e-05
-0.0003353
-0.0006178
-0.0008992
-0.0011786
-0.0014896
-0.0017743
-0.0020548
-0.0023305
-0.0026004
-0.002864
-0.0031204
-0.0033691
-0.0036093
-0.0038404
-0.0041282
-0.0043457
-0.0045516
-0.0047457
-0.004927
-0.0050954
-0.0052502
-0.005391
-0.0055174
-0.005629
-0.0057919
-0.0058745
-0.0059411
-0.0059912
-0.0060248
0.0010407
0.0060418
0.0060252
0.0059918
0.0059417
0.0059177
0.0058332
0.0057321
0.0056146
0.0054812
0.005332
0.0051677
0.0049885
0.0047948
0.0045875
0.0043807
0.0041457
0.0038985
0.00364
0.0033707
0.0030912
0.0028028
0.0025057
0.002201
0.0018898
0.0015716
0.0012499
0.000924
0.000595
0.0002638
-6.88e-05
-0.0004017
-0.000734
-0.0010647
-0.001393
-0.0017089
-0.0020265
-0.0023389
-0.0026454
-0.0029449
-0.0032367
-0.0035197
-0.0037934
-0.004057
-0.0043094
-0.0045099
-0.0047347
-0.0049467
-0.0051454
-0.0053304
-0.0055008
-0.0056564
-0.0057966
-0.005921
-0.0060293
-0.0060437
-0.0061172
-0.0061744
-0.0062151
-0.0040744
0.0062465
0.0062369
0.0062107
0.0061676
0.0061078
0.0059326
0.0058434
0.0057389
0.0056193
0.0054849
0.005336
0.005173
0.0049961
0.0048061
0.0046033
0.0043005
0.0040833
0.0038555
0.0036177
0.0033705
0.0031145
0.0028503
0.0025786
0.0022999
0.0020152
0.0016875
0.0014072
0.0011232
0.000836
0.0005464
0.000255
-3.76e-05
-0.0003304
-0.0006229
-0.0009145
-0.0011616
-0.0014324
-0.0017005
-0.0019652
-0.0022259
-0.0024821
-0.0027332
-0.0029785
-0.0032177
-0.0034501
-0.0035421
-0.003745
-0.0039406
-0.0041281
-0.0043073
-0.004478
-0.0046396
-0.0047917
-0.0049342
-0.0050666
-0.0049797
-0.0050833
-0.0051773
-0.0052614
-0.0053356
-0.0053996
-0.0054535
-0.0054968
-0.0055298
-0.0055521
0.0024498
0.0053153
0.0053078
0.005291
0.0052649
0.0052295
0.0051849
0.0051311
0.0050683
0.0049965
0.0046697
0.00459
0.0045029
0.0044084
0.004307
0.0041985
0.0040832
0.0039614
0.003833
0.0036984
0.0033617
0.0032321
0.0030979
0.002959
0.0028158
0.0026684
0.0025171
0.0023619
0.0022032
0.0020412
0.0017659
0.0016192
0.0014704
0.0013194
0.0011666
0.0010122
0.0008562
0.0006989
0.0005405
0.0003813
0.0002182
8.03e-05
-5.79e-05
-0.0001964
-0.0003347
-0.000473
-0.000611
-0.0007485
-0.0008856
-0.0010219
-0.0010483
-0.0011618
-0.0012743
-0.0013859
-0.0014965
-0.0016058
-0.001714
-0.0018207
-0.0019261
-0.00203
-0.0019199
-0.0020029
-0.0020846
-0.0021648
-0.0022435
-0.0023209
-0.0023965
-0.0024706
-0.0025431
-0.0026137
-0.0023849
-0.002439
-0.0024917
-0.002543
-0.0025929
-0.0026415
-0.0026885
-0.002734
-0.0027781
-0.0028206
-0.0025002
-0.0025311
-0.0025609
-0.0025895
-0.0026171
-0.0026436
-0.0026689
-0.002693
-0.0027161
-0.0027378
-0.002355
-0.00237
-0.002384
-0.0023975
-0.00241
-0.002422
-0.0024329
-0.0024433
-0.0024527
-0.0024615
-0.0020422
-0.0020477
-0.0020527
-0.0020574
-0.0020616
-0.0019249
0.0020686
0.0020713
0.0020737
0.0020756
0.0016394
0.0016405
0.0016415
0.0016423
0.0016428
0.0016431
0.0016431
0
0.0016429
0.0016426
0.0016419
0.0012013
0.0012013
0
0.0012011
0.001201
0.0012006
0.0012002
0.0011998
0.0011991
0.0011985
0.0011977
0.0007587
0.0007589
0.0007589
2
0.000759
0.0007589
0.0007589
0
0.0007588
0.0007587
0.000322
0.0003224
0.0003225
0.0003229
0.0003231
0.0003234
0.0003237
0.0003239
0.0003242
0.0003244
-0.0001125
-0.0001128
-0.0001131
-0.0001133
-0.0001136
-0.0001139
-0.0001142
-0.0001144
-0.0001147
-0.000115
-0.0005563
-0.0005581
-0.0005598
-0.0005616
-0.0005634
-0.0005651
-0.0005668
-0.0005686
-0.0005702
-0.000572
-0.0010211
-0.0010249
-0.0010288
-0.0010326
-0.0010363
-0.00104
-0.0010437
-0.0010472
-0.0010507
-0.0010541
-0.0015117
-0.0015174
-0.001523
-0.0015283
-0.0015335
-0.0015385
-0.0015434
-0.0015481
-0.0015526
-0.0015569
-0.0020188
-0.0020244
-0.0020297
-0.0020346
-0.0020391
-0.0020432
-0.002047
0.0003459
0.0020533
0.0020559
0.0025113
0.0025129
0.0025139
0.0025141
0.0025137
0.0025125
0.0025107
0.002508
0.0025047
0.0025006
0.0029309
0.0029224
0.0029126
0.0029017
0.0028897
0.0028764
0.002862
0.0028466
0.0028298
0.0028121
0.0031909
0.0031637
0.0031348
0.0031041
0.0030718
0.0030379
0.0030024
0.0029653
0.0029265
0.0028862
0.0031817
0.0031262
0.0030685
0.0030088
0.002947
0.0028832
0.0028174
0.0027496
0.00268
0.0026086
0.0027875
0.0026951
0.0026006
0.0025037
0.0024048
0.0023037
0.0022008
0.0020958
0.001989
0.0018805
0.0019157
0.0017822
0.001647
0.0015099
0.0013712
0.001231
0.0010894
0.0009466
0.0008026
0.0006577
0.0005367
0.000366
0.0001946
2.28e-05
-0.0001494
-0.0003216
-0.0004937
-0.0006656
-0.000837
-0.0010077
-0.0012734
-0.0014662
-0.0016574
-0.0018469
-0.0020342
-0.0022194
-0.002402
-0.0025818
-0.0027588
-0.0029324
-0.0033021
-0.0034888
-0.0036711
-0.0038483
-0.0040204
-0.004187
-0.004348
-0.0045031
-0.004652
-0.0047945
-0.0051991
-0.0053415
-0.0054758
-0.0056017
-0.0057189
-0.0058273
-0.0059268
-0.0060172
-0.0060981
-0.0061697
-0.0065222
-0.0065785
-0.0066235
-0.0066573
-0.0066795
0.0059235
0.0066898
0.0066777
0.0066541
0.0066191
0.006834
0.0067704
0.0066943
0.0066054
0.0065043
0.0063907
0.0062653
0.0061278
0.0059789
0.0058185
0.0058364
0.0056406
0.0054335
0.0052152
0.0049862
0.0047469
0.0044978
0.0042394
0.0039721
0.0036965
0.0035056
0.0031974
0.002882
0.0025599
0.002232
0.0018989
0.0015613
0.0012199
0.0008754
0.0005284
0.0001769
-0.0001899
-0.0005567
-0.000923
-0.0012878
-0.0016501
-0.0020095
-0.0023649
-0.0027157
-0.0030609
-0.0034732
-0.0038181
-0.004155
-0.0044827
-0.0048007
-0.0051079
-0.005404
-0.0056881
-0.0059594
-0.0062175
-0.0065647
-0.0068012
-0.0070218
-0.007226
-0.0074135
-0.0075837
-0.007736
-0.0078703
-0.007986
-0.0080831
-0.0082534
-0.008313
-0.0083526
0.0028336
0.008371
0.0083496
0.0083081
0.0082463
0.0081644
0.0080624
0.0079969
0.0078535
0.0076906
0.0075086
0.0073078
0.0070886
0.0068517
0.0065975
0.0063268
0.00604
0.0057551
0.0054364
0.0051037
0.0047579
0.0043998
0.0040302
0.0036501
0.0032604
0.0028619
0.0024559
0.0020417
0.0016239
0.0012015
0.0007754
0.0003469
-8.32e-05
-0.0005137
-0.0009436
-0.0013718
-0.0017972
-0.0022068
-0.0026195
-0.0030267
-0.0034268
-0.0038194
-0.004203
-0.004577
-0.0049403
-0.005292
-0.0056313
-0.0059031
-0.0062098
-0.006502
-0.0067789
-0.00704
-0.0072845
-0.0075118
-0.0077214
-0.0079127
-0.0080852
-0.0081322
-0.008263
-0.0083745
-0.0084665
-0.0085389
-0.0085912
-0.0079753
0.0086356
0.0086275
0.008599
0.0084076
0.0083417
0.0082567
0.0081529
0.0080303
0.0078895
0.0077305
0.0075538
0.0073596
0.0071484
0.0067796
0.0065465
0.0062988
0.0060372
0.0057619
0.0054737
0.0051732
0.004861
0.0045378
0.0042041
0.0037705
0.0034364
0.0030946
0.0027458
0.0023911
0.0020307
0.0016656
0.0012966
0.0009244
0.0005496
0.0001775
-0.0001776
-0.0005329
-0.0008877
-0.0012413
-0.001593
-0.0019421
-0.002288
-0.0026299
-0.0029672
-0.0031753
-0.0034795
-0.003778
-0.00407
-0.0043551
-0.0046327
-0.0049024
-0.0051635
-0.0054158
-0.0056585
-0.0056493
-0.0058554
-0.0060517
-0.0062384
-0.0064148
-0.0065809
-0.0067361
-0.0068803
-0.0070133
-0.0071347
-0.0069129
-0.0070029
-0.0070824
-0.0071513
-0.0072094
-0.0072565
-0.0072928
-0.0073178
0.0030471
0.0073348
0.0069526
0.0069362
0.0069101
0.0068745
0.0068296
0.0067751
0.0067113
0.0066381
0.0065559
0.0064644
0.006003
0.0059069
0.0058035
0.0056929
0.0055751
0.0054503
0.0053188
0.0051807
0.0050359
0.0048848
0.0044316
0.0042897
0.004143
0.0039916
0.0038358
0.0036757
0.0035115
0.0033431
0.0031712
0.0029955
0.0026253
0.0024692
0.0023106
0.0021495
0.0019864
0.0018212
0.0016539
0.0014851
0.0013146
0.0011426
0.0009073
0.0007607
0.0006134
0.0004653
0.0003168
0.0001677
1.83e-05
