# Pulseq sequence file
# Created by MATLAB mr toolbox

[VERSION]
major 1
minor 4
revision 1

[DEFINITIONS]
AdcRasterTime 1e-07 
BlockDurationRaster 1e-05 
FOV 0.256 0.256 0.256 
GradientRasterTime 1e-05 
Name zte_petra 
RadiofrequencyRasterTime 1e-06 
SamplesPerShell 6434 1257 1018 805 616 453 315 202 114 51 13 1 
TotalDuration 16.3371 

# Format of blocks:
# NUM DUR RF  GX  GY  GZ  ADC  EXT
[BLOCKS]
    1 142   0   0   0   1  0  0
    2  95   0   2   2   3  0  0
    3  47   1   0   0   4  1  0
    4  95   0   5   6   7  0  0
    5  47   1   9  10   8  1  0
    6  95   0  11  12  13  0  0
    7  47   1  15  16  14  1  0
    8  95   0  17  18  19  0  0
    9  47   1  21  22  20  1  0
   10  95   0  23  24  25  0  0
   11  47   1  27  28  26  1  0
   12  95   0  29  30  31  0  0
   13  47   1  33  34  32  1  0
   14  95   0  35  36  37  0  0
   15  47   1  39  40  38  1  0
   16  95   0  41  42  43  0  0
   17  47   1  45  46  44  1  0
   18  95   0  47  48  49  0  0
   19  47   1  51  52  50  1  0
   20  95   0  53  54  55  0  0
   21  47   1  57  58  56  1  0
   22  95   0  59  60  61  0  0
   23  47   1  63  64  62  1  0
   24  95   0  65  66  67  0  0
   25  47   1  69  70  68  1  0
   26  95   0  71  72  73  0  0
   27  47   1  75  76  74  1  0
   28  95   0  77  78  79  0  0
   29  47   1  81  82  80  1  0
   30  95   0  83  84  85  0  0
   31  47   1  87  88  86  1  0
   32  95   0  89  90  91  0  0
   33  47   1  93  94  92  1  0
   34  95   0  95  96  97  0  0
   35  47   1  99 100  98  1  0
   36  95   0 101 102 103  0  0
   37  47   1 105 106 104  1  0
   38  95   0 107 108 109  0  0
   39  47   1 111 112 110  1  0
   40  95   0 113 114 115  0  0
   41  47   1 117 118 116  1  0
   42  95   0 119 120 121  0  0
   43  47   1 123 124 122  1  0
   44  95   0 125 126 127  0  0
   45  47   1 129 130 128  1  0
   46  95   0 131 132 133  0  0
   47  47   1 135 136 134  1  0
   48  95   0 137 138 139  0  0
   49  47   1 141 142 140  1  0
   50  95   0 143 144 145  0  0
   51  47   1 147 148 146  1  0
   52  95   0 149 150 151  0  0
   53  47   1 153 154 152  1  0
   54  95   0 155 156 157  0  0
   55  47   1 159 160 158  1  0
   56  95   0 161 162 163  0  0
   57  47   1 165 166 164  1  0
   58  95   0 167 168 169  0  0
   59  47   1 171 172 170  1  0
   60  95   0 173 174 175  0  0
   61  47   1 177 178 176  1  0
   62  95   0 179 180 181  0  0
   63  47   1 183 184 182  1  0
   64  95   0 185 186 187  0  0
   65  47   1 189 190 188  1  0
   66  95   0 191 192 193  0  0
   67  47   1 195 196 194  1  0
   68  95   0 197 198 199  0  0
   69  47   1 201 202 200  1  0
   70  95   0 203 204 205  0  0
   71  47   1 207 208 206  1  0
   72  95   0 209 210 211  0  0
   73  47   1 213 214 212  1  0
   74  95   0 215 216 217  0  0
   75  47   1 219 220 218  1  0
   76  95   0 221 222 223  0  0
   77  47   1 225 226 224  1  0
   78  95   0 227 228 229  0  0
   79  47   1 231 232 230  1  0
   80  95   0 233 234 235  0  0
   81  47   1 237 238 236  1  0
   82  95   0 239 240 241  0  0
   83  47   1 243 244 242  1  0
   84  95   0 245 246 247  0  0
   85  47   1 249 250 248  1  0
   86  95   0 251 252 253  0  0
   87  47   1 255 256 254  1  0
   88  95   0 257 258 259  0  0
   89  47   1 261 262 260  1  0
   90  95   0 263 264 265  0  0
   91  47   1 267 268 266  1  0
   92  95   0 269 270 271  0  0
   93  47   1 273 274 272  1  0
   94  95   0 275 276 277  0  0
   95  47   1 279 280 278  1  0
   96  95   0 281 282 283  0  0
   97  47   1 285 286 284  1  0
   98  95   0 287 288 289  0  0
   99  47   1 291 292 290  1  0
  100  95   0 293 294 295  0  0
  101  47   1 297 298 296  1  0
  102  95   0 299 300 301  0  0
  103  47   1 303 304 302  1  0
  104  95   0 305 306 307  0  0
  105  47   1 309 310 308  1  0
  106  95   0 311 312 313  0  0
  107  47   1 315 316 314  1  0
  108  95   0 317 318 319  0  0
  109  47   1 321 322 320  1  0
  110  95   0 323 324 325  0  0
  111  47   1 327 328 326  1  0
  112  95   0 329 330 331  0  0
  113  47   1 333 334 332  1  0
  114  95   0 335 336 337  0  0
  115  47   1 339 340 338  1  0
  116  95   0 341 342 343  0  0
  117  47   1 345 346 344  1  0
  118  95   0 347 348 349  0  0
  119  47   1 351 352 350  1  0
  120  95   0 353 354 355  0  0
  121  47   1 357 358 356  1  0
  122  95   0 359 360 361  0  0
  123  47   1 363 364 362  1  0
  124  95   0 365 366 367  0  0
  125  47   1 369 370 368  1  0
  126  95   0 371 372 373  0  0
  127  47   1 375 376 374  1  0
  128  95   0 377 378 379  0  0
  129  47   1 381 382 380  1  0
  130  95   0 383 384 385  0  0
  131  47   1 387 388 386  1  0
  132  95   0 389 390 391  0  0
  133  47   1 393 394 392  1  0
  134  95   0 395 396 397  0  0
  135  47   1 399 400 398  1  0
  136  95   0 401 402 403  0  0
  137  47   1 405 406 404  1  0
  138  95   0 407 408 409  0  0
  139  47   1 411 412 410  1  0
  140  95   0 413 414 415  0  0
  141  47   1 417 418 416  1  0
  142  95   0 419 420 421  0  0
  143  47   1 423 424 422  1  0
  144  95   0 425 426 427  0  0
  145  47   1 429 430 428  1  0
  146  95   0 431 432 433  0  0
  147  47   1 435 436 434  1  0
  148  95   0 437 438 439  0  0
  149  47   1 441 442 440  1  0
  150  95   0 443 444 445  0  0
  151  47   1 447 448 446  1  0
  152  95   0 449 450 451  0  0
  153  47   1 453 454 452  1  0
  154  95   0 455 456 457  0  0
  155  47   1 459 460 458  1  0
  156  95   0 461 462 463  0  0
  157  47   1 465 466 464  1  0
  158  95   0 467 468 469  0  0
  159  47   1 471 472 470  1  0
  160  95   0 473 474 475  0  0
  161  47   1 477 478 476  1  0
  162  95   0 479 480 481  0  0
  163  47   1 483 484 482  1  0
  164  95   0 485 486 487  0  0
  165  47   1 489 490 488  1  0
  166  95   0 491 492 493  0  0
  167  47   1 495 496 494  1  0
  168  95   0 497 498 499  0  0
  169  47   1 501 502 500  1  0
  170  95   0 503 504 505  0  0
  171  47   1 507 508 506  1  0
  172  95   0 509 510 511  0  0
  173  47   1 513 514 512  1  0
  174  95   0 515 516 517  0  0
  175  47   1 519 520 518  1  0
  176  95   0 521 522 523  0  0
  177  47   1 525 526 524  1  0
  178  95   0 527 528 529  0  0
  179  47   1 531 532 530  1  0
  180  95   0 533 534 535  0  0
  181  47   1 537 538 536  1  0
  182  95   0 539 540 541  0  0
  183  47   1 543 544 542  1  0
  184  95   0 545 546 547  0  0
  185  47   1 549 550 548  1  0
  186  95   0 551 552 553  0  0
  187  47   1 555 556 554  1  0
  188  95   0 557 558 559  0  0
  189  47   1 561 562 560  1  0
  190  95   0 563 564 565  0  0
  191  47   1 567 568 566  1  0
  192  95   0 569 570 571  0  0
  193  47   1 573 574 572  1  0
  194  95   0 575 576 577  0  0
  195  47   1 579 580 578  1  0
  196  95   0 581 582 583  0  0
  197  47   1 585 586 584  1  0
  198  95   0 587 588 589  0  0
  199  47   1 591 592 590  1  0
  200  95   0 593 594 595  0  0
  201  47   1 597 598 596  1  0
  202  95   0 599 600 601  0  0
  203  47   1 603 604 602  1  0
  204  95   0 605 606 607  0  0
  205  47   1 609 610 608  1  0
  206  95   0 611 612 613  0  0
  207  47   1 615 616 614  1  0
  208  95   0 617 618 619  0  0
  209  47   1 621 622 620  1  0
  210  95   0 623 624 625  0  0
  211  47   1 627 628 626  1  0
  212  95   0 629 630 631  0  0
  213  47   1 633 634 632  1  0
  214  95   0 635 636 637  0  0
  215  47   1 639 640 638  1  0
  216  95   0 641 642 643  0  0
  217  47   1 645 646 644  1  0
  218  95   0 647 648 649  0  0
  219  47   1 651 652 650  1  0
  220  95   0 653 654 655  0  0
  221  47   1 657 658 656  1  0
  222  95   0 659 660 661  0  0
  223  47   1 663 664 662  1  0
  224  95   0 665 666 667  0  0
  225  47   1 669 670 668  1  0
  226  95   0 671 672 673  0  0
  227  47   1 675 676 674  1  0
  228  95   0 677 678 679  0  0
  229  47   1 681 682 680  1  0
  230  95   0 683 684 685  0  0
  231  47   1 687 688 686  1  0
  232  95   0 689 690 691  0  0
  233  47   1 693 694 692  1  0
  234  95   0 695 696 697  0  0
  235  47   1 699 700 698  1  0
  236 142   2 701 702 703  0  0
  237  95   0 704 705 706  0  0
  238  47   1 708 709 707  1  0
  239  95   0 710 711 712  0  0
  240  47   1 714 715 713  1  0
  241  95   0 716 717 718  0  0
  242  47   1 720 721 719  1  0
  243  95   0 722 723 724  0  0
  244  47   1 726 727 725  1  0
  245  95   0 728 729 730  0  0
  246  47   1 732 733 731  1  0
  247  95   0 734 735 736  0  0
  248  47   1 738 739 737  1  0
  249  95   0 740 741 742  0  0
  250  47   1 744 745 743  1  0
  251  95   0 746 747 748  0  0
  252  47   1 750 751 749  1  0
  253  95   0 752 753 754  0  0
  254  47   1 756 757 755  1  0
  255  95   0 758 759 760  0  0
  256  47   1 762 763 761  1  0
  257  95   0 764 765 766  0  0
  258  47   1 768 769 767  1  0
  259  95   0 770 771 772  0  0
  260  47   1 774 775 773  1  0
  261  95   0 776 777 778  0  0
  262  47   1 780 781 779  1  0
  263  95   0 782 783 784  0  0
  264  47   1 786 787 785  1  0
  265  95   0 788 789 790  0  0
  266  47   1 792 793 791  1  0
  267  95   0 794 795 796  0  0
  268  47   1 798 799 797  1  0
  269  95   0 800 801 802  0  0
  270  47   1 804 805 803  1  0
  271  95   0 806 807 808  0  0
  272  47   1 810 811 809  1  0
  273  95   0 812 813 814  0  0
  274  47   1 816 817 815  1  0
  275  95   0 818 819 820  0  0
  276  47   1 822 823 821  1  0
  277  95   0 824 825 826  0  0
  278  47   1 828 829 827  1  0
  279  95   0 830 831 832  0  0
  280  47   1 834 835 833  1  0
  281  95   0 836 837 838  0  0
  282  47   1 840 841 839  1  0
  283  95   0 842 843 844  0  0
  284  47   1 846 847 845  1  0
  285  95   0 848 849 850  0  0
  286  47   1 852 853 851  1  0
  287  95   0 854 855 856  0  0
  288  47   1 858 859 857  1  0
  289  95   0 860 861 862  0  0
  290  47   1 864 865 863  1  0
  291  95   0 866 867 868  0  0
  292  47   1 870 871 869  1  0
  293  95   0 872 873 874  0  0
  294  47   1 876 877 875  1  0
  295  95   0 878 879 880  0  0
  296  47   1 882 883 881  1  0
  297  95   0 884 885 886  0  0
  298  47   1 888 889 887  1  0
  299  95   0 890 891 892  0  0
[RF]
1      3106.22 6 7 0 100 0 -0
2      3106.22 6 7 0 1050 0 -0
3      3106.22 6 7 0 100 0 0

# Format of arbitrary gradients:
#   time_shape_id of 0 means default timing (stepping with grad_raster starting at 1/2 of grad_raster)
# id amplitude amp_shape_id time_shape_id delay
# ..      Hz/m       ..         ..          us
[GRADIENTS]
1       139657 1 2 1400
2            0 3 4 0
3       704225 5 4 0
4       704225 8 9 0
5      -129504 10 4 0
6     -6621.65 10 4 0
7       704225 11 4 0
8       692184 8 9 0
9      -129504 8 9 0
10     -6621.65 8 9 0
11      -181642 12 4 0
12     -18623.6 13 4 0
13       692184 14 4 0
14       680142 8 9 0
15      -181642 8 9 0
16     -18623.6 8 9 0
17      -220046 15 4 0
18     -33990.5 16 4 0
19       680142 17 4 0
20       668100 8 9 0
21      -220046 8 9 0
22     -33990.5 8 9 0
23      -250645 18 4 0
24       -51943 19 4 0
25       668100 20 4 0
26       656058 8 9 0
27      -250645 8 9 0
28       -51943 8 9 0
29      -275670 21 4 0
30     -71987.1 22 4 0
31       656058 23 4 0
32       644016 8 9 0
33      -275670 8 9 0
34     -71987.1 8 9 0
35      -296229 24 4 0
36     -93753.9 25 4 0
37       644016 26 4 0
38       631975 8 9 0
39      -296229 8 9 0
40     -93753.9 8 9 0
41      -312956 27 4 0
42      -116942 28 4 0
43       631975 29 4 0
44       619933 8 9 0
45      -312956 8 9 0
46      -116942 8 9 0
47      -326250 30 4 0
48      -141290 31 4 0
49       619933 32 4 0
50       607891 8 9 0
51      -326250 8 9 0
52      -141290 8 9 0
53      -336382 33 4 0
54      -166566 34 4 0
55       607891 35 4 0
56       595849 8 9 0
57      -336382 8 9 0
58      -166566 8 9 0
59      -343547 36 4 0
60      -192555 37 4 0
61       595849 38 4 0
62       583808 8 9 0
63      -343547 8 9 0
64      -192555 8 9 0
65      -347895 39 4 0
66      -219058 40 4 0
67       583808 41 4 0
68       571766 8 9 0
69      -347895 8 9 0
70      -219058 8 9 0
71      -349546 42 4 0
72      -245886 43 4 0
73       571766 44 4 0
74       559724 8 9 0
75      -349546 8 9 0
76      -245886 8 9 0
77      -349546 45 4 0
78      -272862 46 4 0
79       559724 47 4 0
80       547682 8 9 0
81      -348603 8 9 0
82      -272862 8 9 0
83      -348603 48 4 0
84      -299813 49 4 0
85       547682 50 4 0
86       535640 8 9 0
87      -345159 8 9 0
88      -299813 8 9 0
89      -345159 51 4 0
90      -326577 52 4 0
91       535640 53 4 0
92       523599 8 9 0
93      -339301 8 9 0
94      -326577 8 9 0
95      -339301 54 4 0
96      -352998 55 4 0
97       523599 56 4 0
98       511557 8 9 0
99      -331112 8 9 0
100      -352998 8 9 0
101      -331112 57 4 0
102      -378925 58 4 0
103       511557 59 4 0
104       499515 8 9 0
105      -320677 8 9 0
106      -378925 8 9 0
107      -320677 60 4 0
108      -404215 61 4 0
109       499515 62 4 0
110       487473 8 9 0
111      -308081 8 9 0
112      -404215 8 9 0
113      -308081 63 4 0
114      -428730 64 4 0
115       487473 65 4 0
116       475431 8 9 0
117      -293410 8 9 0
118      -428730 8 9 0
119      -293410 66 4 0
120      -452339 67 4 0
121       475431 68 4 0
122       463390 8 9 0
123      -276754 8 9 0
124      -452339 8 9 0
125      -276754 69 4 0
126      -474918 70 4 0
127       463390 71 4 0
128       451348 8 9 0
129      -258208 8 9 0
130      -474918 8 9 0
131      -258208 72 4 0
132      -496349 73 4 0
133       451348 74 4 0
134       439306 8 9 0
135      -237869 8 9 0
136      -496349 8 9 0
137      -237869 75 4 0
138      -516520 76 4 0
139       439306 77 4 0
140       427264 8 9 0
141      -215837 8 9 0
142      -516520 8 9 0
143      -215837 78 4 0
144      -535328 79 4 0
145       427264 80 4 0
146       415223 8 9 0
147      -192218 8 9 0
148      -535328 8 9 0
149      -192218 81 4 0
150      -552675 82 4 0
151       415223 83 4 0
152       403181 8 9 0
153      -167120 8 9 0
154      -552675 8 9 0
155      -167120 84 4 0
156      -568471 85 4 0
157       403181 86 4 0
158       391139 8 9 0
159      -140655 8 9 0
160      -568471 8 9 0
161      -140655 87 4 0
162      -582635 88 4 0
163       391139 89 4 0
164       379097 8 9 0
165      -112940 8 9 0
166      -582635 8 9 0
167      -112940 90 4 0
168      -595090 91 4 0
169       379097 92 4 0
170       367055 8 9 0
171     -84093.7 8 9 0
172      -595090 8 9 0
173     -84093.7 93 4 0
174      -605770 94 4 0
175       367055 95 4 0
176       355014 8 9 0
177     -54237.6 8 9 0
178      -605770 8 9 0
179     -54237.6 96 4 0
180      -614615 97 4 0
181       355014 98 4 0
182       342972 8 9 0
183     -23496.4 8 9 0
184      -614615 8 9 0
185     -23496.4 99 4 0
186      -621574 100 4 0
187       342972 101 4 0
188       330930 8 9 0
189      8003.45 8 9 0
190      -621574 8 9 0
191      40133.3 102 4 0
192      -626604 103 4 0
193       330930 104 4 0
194       318888 8 9 0
195      40133.3 8 9 0
196      -626604 8 9 0
197      72763.4 105 4 0
198      -629670 106 4 0
199       318888 107 4 0
200       306847 8 9 0
201      72763.4 8 9 0
202      -629670 8 9 0
203       105763 108 4 0
204      -630744 109 4 0
205       306847 110 4 0
206       294805 8 9 0
207       105763 8 9 0
208      -630744 8 9 0
209       139000 111 4 0
210      -630744 112 4 0
211       294805 113 4 0
212       282763 8 9 0
213       139000 8 9 0
214      -629807 8 9 0
215       172343 114 4 0
216      -629807 115 4 0
217       282763 116 4 0
218       270721 8 9 0
219       172343 8 9 0
220      -626850 8 9 0
221       205662 117 4 0
222      -626850 118 4 0
223       270721 119 4 0
224       258679 8 9 0
225       205662 8 9 0
226      -621869 8 9 0
227       238824 120 4 0
228      -621869 121 4 0
229       258679 122 4 0
230       246638 8 9 0
231       238824 8 9 0
232      -614871 8 9 0
233       271702 123 4 0
234      -614871 124 4 0
235       246638 125 4 0
236       234596 8 9 0
237       271702 8 9 0
238      -605868 8 9 0
239       304167 126 4 0
240      -605868 127 4 0
241       234596 128 4 0
242       222554 8 9 0
243       304167 8 9 0
244      -594883 8 9 0
245       336093 129 4 0
246      -594883 130 4 0
247       222554 131 4 0
248       210512 8 9 0
249       336093 8 9 0
250      -581944 8 9 0
251       367358 132 4 0
252      -581944 133 4 0
253       210512 134 4 0
254       198470 8 9 0
255       367358 8 9 0
256      -567090 8 9 0
257       397841 135 4 0
258      -567090 136 4 0
259       198470 137 4 0
260       186429 8 9 0
261       397841 8 9 0
262      -550364 8 9 0
263       427425 138 4 0
264      -550364 139 4 0
265       186429 140 4 0
266       174387 8 9 0
267       427425 8 9 0
268      -531818 8 9 0
269       455997 141 4 0
270      -531818 142 4 0
271       174387 143 4 0
272       162345 8 9 0
273       455997 8 9 0
274      -511512 8 9 0
275       483448 144 4 0
276      -511512 145 4 0
277       162345 146 4 0
278       150303 8 9 0
279       483448 8 9 0
280      -489510 8 9 0
281       509674 147 4 0
282      -489510 148 4 0
283       150303 149 4 0
284       138262 8 9 0
285       509674 8 9 0
286      -465885 8 9 0
287       534576 150 4 0
288      -465885 151 4 0
289       138262 152 4 0
290       126220 8 9 0
291       534576 8 9 0
292      -440716 8 9 0
293       558058 153 4 0
294      -440716 154 4 0
295       126220 155 4 0
296       114178 8 9 0
297       558058 8 9 0
298      -414086 8 9 0
299       580033 156 4 0
300      -414086 157 4 0
301       114178 158 4 0
302       102136 8 9 0
303       580033 8 9 0
304      -386087 8 9 0
305       600418 159 4 0
306      -386087 160 4 0
307       102136 161 4 0
308      90094.4 8 9 0
309       600418 8 9 0
310      -356812 8 9 0
311       619136 162 4 0
312      -356812 163 4 0
313      90094.4 164 4 0
314      78052.6 8 9 0
315       619136 8 9 0
316      -326362 8 9 0
317       636117 165 4 0
318      -326362 166 4 0
319      78052.6 167 4 0
320      66010.9 8 9 0
321       636117 8 9 0
322      -294841 8 9 0
323       651298 168 4 0
324      -294841 169 4 0
325      66010.9 170 4 0
326      53969.1 8 9 0
327       651298 8 9 0
328      -262359 8 9 0
329       664622 171 4 0
330      -262359 172 4 0
331      53969.1 173 4 0
332      41927.3 8 9 0
333       664622 8 9 0
334      -229026 8 9 0
335       676041 174 4 0
336      -229026 175 4 0
337      41927.3 176 4 0
338      29885.5 8 9 0
339       676041 8 9 0
340      -194959 8 9 0
341       685512 177 4 0
342      -194959 178 4 0
343      29885.5 179 4 0
344      17843.7 8 9 0
345       685512 8 9 0
346      -160277 8 9 0
347       693001 180 4 0
348      -160277 181 4 0
349      17843.7 182 4 0
350      5801.95 8 9 0
351       693001 8 9 0
352      -125099 8 9 0
353       698481 183 4 0
354      -125099 184 4 0
355      6239.83 185 4 0
356     -6239.83 8 9 0
357       698481 8 9 0
358     -89547.6 8 9 0
359       701933 186 4 0
360     -89547.6 187 4 0
361     -18281.6 188 4 0
362     -18281.6 8 9 0
363       701933 8 9 0
364     -53747.5 8 9 0
365       703346 189 4 0
366     -53747.5 190 4 0
367     -30323.4 191 4 0
368     -30323.4 8 9 0
369       703346 8 9 0
370     -17823.4 8 9 0
371       703346 192 4 0
372     -18099.5 193 4 0
373     -42365.2 194 4 0
374     -42365.2 8 9 0
375       702717 8 9 0
376      18099.5 8 9 0
377       702717 195 4 0
378      53895.7 196 4 0
379       -54407 197 4 0
380       -54407 8 9 0
381       700049 8 9 0
382      53895.7 8 9 0
383       700049 198 4 0
384      89440.4 199 4 0
385     -66448.7 200 4 0
386     -66448.7 8 9 0
387       695355 8 9 0
388      89440.4 8 9 0
389       695355 201 4 0
390       124609 202 4 0
391     -78490.5 203 4 0
392     -78490.5 8 9 0
393       688655 8 9 0
394       124609 8 9 0
395       688655 204 4 0
396       159280 205 4 0
397     -90532.3 206 4 0
398     -90532.3 8 9 0
399       679976 8 9 0
400       159280 8 9 0
401       679976 207 4 0
402       193332 208 4 0
403      -102574 209 4 0
404      -102574 8 9 0
405       669354 8 9 0
406       193332 8 9 0
407       669354 210 4 0
408       226647 211 4 0
409      -114616 212 4 0
410      -114616 8 9 0
411       656832 8 9 0
412       226647 8 9 0
413       656832 213 4 0
414       259108 214 4 0
415      -126658 215 4 0
416      -126658 8 9 0
417       642459 8 9 0
418       259108 8 9 0
419       642459 216 4 0
420       290605 217 4 0
421      -138699 218 4 0
422      -138699 8 9 0
423       626295 8 9 0
424       290605 8 9 0
425       626295 219 4 0
426       321026 220 4 0
427      -150741 221 4 0
428      -150741 8 9 0
429       608402 8 9 0
430       321026 8 9 0
431       608402 222 4 0
432       350269 223 4 0
433      -162783 224 4 0
434      -162783 8 9 0
435       588852 8 9 0
436       350269 8 9 0
437       588852 225 4 0
438       378233 226 4 0
439      -174825 227 4 0
440      -174825 8 9 0
441       567723 8 9 0
442       378233 8 9 0
443       567723 228 4 0
444       404822 229 4 0
445      -186867 230 4 0
446      -186867 8 9 0
447       545099 8 9 0
448       404822 8 9 0
449       545099 231 4 0
450       429946 232 4 0
451      -198908 233 4 0
452      -198908 8 9 0
453       521071 8 9 0
454       429946 8 9 0
455       521071 234 4 0
456       453521 235 4 0
457      -210950 236 4 0
458      -210950 8 9 0
459       495734 8 9 0
460       453521 8 9 0
461       495734 237 4 0
462       475467 238 4 0
463      -222992 239 4 0
464      -222992 8 9 0
465       469190 8 9 0
466       475467 8 9 0
467       469190 240 4 0
468       495713 241 4 0
469      -235034 242 4 0
470      -235034 8 9 0
471       441544 8 9 0
472       495713 8 9 0
473       441544 243 4 0
474       514193 244 4 0
475      -247075 245 4 0
476      -247075 8 9 0
477       412908 8 9 0
478       514193 8 9 0
479       412908 246 4 0
480       530847 247 4 0
481      -259117 248 4 0
482      -259117 8 9 0
483       383397 8 9 0
484       530847 8 9 0
485       383397 249 4 0
486       545624 250 4 0
487      -271159 251 4 0
488      -271159 8 9 0
489       353130 8 9 0
490       545624 8 9 0
491       353130 252 4 0
492       558478 253 4 0
493      -283201 254 4 0
494      -283201 8 9 0
495       322231 8 9 0
496       558478 8 9 0
497       322231 255 4 0
498       569373 256 4 0
499      -295243 257 4 0
500      -295243 8 9 0
501       290825 8 9 0
502       569373 8 9 0
503       290825 258 4 0
504       578279 259 4 0
505      -307284 260 4 0
506      -307284 8 9 0
507       259041 8 9 0
508       578279 8 9 0
509       259041 261 4 0
510       585175 262 4 0
511      -319326 263 4 0
512      -319326 8 9 0
513       227011 8 9 0
514       585175 8 9 0
515       227011 264 4 0
516       590047 265 4 0
517      -331368 266 4 0
518      -331368 8 9 0
519       194866 8 9 0
520       590047 8 9 0
521       194866 267 4 0
522       592890 268 4 0
523      -343410 269 4 0
524      -343410 8 9 0
525       162742 8 9 0
526       592890 8 9 0
527       162742 270 4 0
528       593705 271 4 0
529      -355452 272 4 0
530      -355452 8 9 0
531       130774 8 9 0
532       593705 8 9 0
533       130774 273 4 0
534       593705 274 4 0
535      -367493 275 4 0
536      -367493 8 9 0
537      99097.8 8 9 0
538       592505 8 9 0
539      99097.8 276 4 0
540       592505 277 4 0
541      -379535 278 4 0
542      -379535 8 9 0
543      67851.1 8 9 0
544       589307 8 9 0
545      67851.1 279 4 0
546       589307 280 4 0
547      -391577 281 4 0
548      -391577 8 9 0
549      37169.9 8 9 0
550       584140 8 9 0
551      37169.9 282 4 0
552       584140 283 4 0
553      -403619 284 4 0
554      -403619 8 9 0
555      7190.29 8 9 0
556       577039 8 9 0
557      21952.4 285 4 0
558       577039 286 4 0
559      -415660 287 4 0
560      -415660 8 9 0
561     -21952.4 8 9 0
562       568047 8 9 0
563     -50123.9 288 4 0
564       568047 289 4 0
565      -427702 290 4 0
566      -427702 8 9 0
567     -50123.9 8 9 0
568       557218 8 9 0
569     -77191.1 291 4 0
570       557218 292 4 0
571      -439744 293 4 0
572      -439744 8 9 0
573     -77191.1 8 9 0
574       544610 8 9 0
575      -103022 294 4 0
576       544610 295 4 0
577      -451786 296 4 0
578      -451786 8 9 0
579      -103022 8 9 0
580       530292 8 9 0
581      -127488 297 4 0
582       530292 298 4 0
583      -463828 299 4 0
584      -463828 8 9 0
585      -127488 8 9 0
586       514339 8 9 0
587      -150459 300 4 0
588       514339 301 4 0
589      -475869 302 4 0
590      -475869 8 9 0
591      -150459 8 9 0
592       496834 8 9 0
593      -171810 303 4 0
594       496834 304 4 0
595      -487911 305 4 0
596      -487911 8 9 0
597      -171810 8 9 0
598       477868 8 9 0
599      -191414 306 4 0
600       477868 307 4 0
601      -499953 308 4 0
602      -499953 8 9 0
603      -191414 8 9 0
604       457538 8 9 0
605      -209146 309 4 0
606       457538 310 4 0
607      -511995 311 4 0
608      -511995 8 9 0
609      -209146 8 9 0
610       435950 8 9 0
611      -224884 312 4 0
612       435950 313 4 0
613      -524036 314 4 0
614      -524036 8 9 0
615      -224884 8 9 0
616       413215 8 9 0
617      -238500 315 4 0
618       413215 316 4 0
619      -536078 317 4 0
620      -536078 8 9 0
621      -238500 8 9 0
622       389450 8 9 0
623      -249867 318 4 0
624       389450 319 4 0
625      -548120 320 4 0
626      -548120 8 9 0
627      -249867 8 9 0
628       364780 8 9 0
629      -258853 321 4 0
630       364780 322 4 0
631      -560162 323 4 0
632      -560162 8 9 0
633      -258853 8 9 0
634       339333 8 9 0
635      -265318 324 4 0
636       339333 325 4 0
637      -572204 326 4 0
638      -572204 8 9 0
639      -265318 8 9 0
640       313246 8 9 0
641      -269108 327 4 0
642       313246 328 4 0
643      -584245 329 4 0
644      -584245 8 9 0
645      -269108 8 9 0
646       286656 8 9 0
647      -270050 330 4 0
648       286656 331 4 0
649      -596287 332 4 0
650      -596287 8 9 0
651      -270050 8 9 0
652       259707 8 9 0
653      -270050 333 4 0
654       259707 334 4 0
655      -608329 335 4 0
656      -608329 8 9 0
657      -267941 8 9 0
658       232544 8 9 0
659      -267941 336 4 0
660       232544 337 4 0
661      -620371 338 4 0
662      -620371 8 9 0
663      -262527 8 9 0
664       205312 8 9 0
665      -262527 339 4 0
666       205312 340 4 0
667      -632413 341 4 0
668      -632413 8 9 0
669      -253477 8 9 0
670       178150 8 9 0
671      -253477 342 4 0
672       178150 343 4 0
673      -644454 344 4 0
674      -644454 8 9 0
675      -240323 8 9 0
676       151184 8 9 0
677      -240323 345 4 0
678       151184 346 4 0
679      -656496 347 4 0
680      -656496 8 9 0
681      -222359 8 9 0
682       124509 8 9 0
683      -222359 348 4 0
684       124509 349 4 0
685      -668538 350 4 0
686      -668538 8 9 0
687      -198393 8 9 0
688      98135.6 8 9 0
689      -198393 351 4 0
690      98135.6 352 4 0
691      -680580 353 4 0
692      -680580 8 9 0
693      -166082 8 9 0
694      71843.8 8 9 0
695      -166082 354 4 0
696      71843.8 355 4 0
697      -692621 356 4 0
698      -692621 8 9 0
699      -119278 8 9 0
700      44514.2 8 9 0
701      -119278 357 358 0
702      44514.2 359 358 0
703      -692621 360 358 0
704      12947.5 1 4 0
705       -11861 10 4 0
706       704006 361 4 0
707       704006 8 9 0
708      12947.5 8 9 0
709       -11861 8 9 0
710       100862 362 4 0
711     -83337.4 363 4 0
712       704006 364 4 0
713       691965 8 9 0
714       100862 8 9 0
715     -83337.4 8 9 0
716       147170 365 4 0
717      -109450 366 4 0
718       691965 367 4 0
719       679923 8 9 0
720       147170 8 9 0
721      -109450 8 9 0
722       185761 368 4 0
723      -123940 369 4 0
724       679923 370 4 0
725       667881 8 9 0
726       185761 8 9 0
727      -123940 8 9 0
728       220386 371 4 0
729      -131294 372 4 0
730       667881 373 4 0
731       655839 8 9 0
732       220386 8 9 0
733      -131294 8 9 0
734       252334 374 4 0
735      -133362 375 4 0
736       655839 376 4 0
737       643797 8 9 0
738       252334 8 9 0
739      -133362 8 9 0
740       282163 377 4 0
741      -133362 378 4 0
742       643797 379 4 0
743       631756 8 9 0
744       282163 8 9 0
745      -131156 8 9 0
746       310133 380 4 0
747      -131156 381 4 0
748       631756 382 4 0
749       619714 8 9 0
750       310133 8 9 0
751      -125321 8 9 0
752       336360 383 4 0
753      -125321 384 4 0
754       619714 385 4 0
755       607672 8 9 0
756       336360 8 9 0
757      -116318 8 9 0
758       360885 386 4 0
759      -116318 387 4 0
760       607672 388 4 0
761       595630 8 9 0
762       360885 8 9 0
763      -104499 8 9 0
764       383706 389 4 0
765      -104499 390 4 0
766       595630 391 4 0
767       583589 8 9 0
768       383706 8 9 0
769     -90152.9 8 9 0
770       404798 392 4 0
771     -90152.9 393 4 0
772       583589 394 4 0
773       571547 8 9 0
774       404798 8 9 0
775     -73527.6 8 9 0
776       424122 395 4 0
777     -73527.6 396 4 0
778       571547 397 4 0
779       559505 8 9 0
780       424122 8 9 0
781     -54842.7 8 9 0
782       441634 398 4 0
783     -54842.7 399 4 0
784       559505 400 4 0
785       547463 8 9 0
786       441634 8 9 0
787     -34299.4 8 9 0
788       457287 401 4 0
789     -34299.4 402 4 0
790       547463 403 4 0
791       535421 8 9 0
792       457287 8 9 0
793     -12085.6 8 9 0
794       471033 404 4 0
795     -12085.6 405 4 0
796       535421 406 4 0
797       523380 8 9 0
798       471033 8 9 0
799      11619.6 8 9 0
800       482829 407 4 0
801      36644.2 408 4 0
802       523380 409 4 0
803       511338 8 9 0
804       482829 8 9 0
805      36644.2 8 9 0
806       492636 410 4 0
807      62821.1 411 4 0
808       511338 412 4 0
809       499296 8 9 0
810       492636 8 9 0
811      62821.1 8 9 0
812       500419 413 4 0
813        89987 414 4 0
814       499296 415 4 0
815       487254 8 9 0
816       500419 8 9 0
817        89987 8 9 0
818       506149 416 4 0
819       117982 417 4 0
820       487254 418 4 0
821       475213 8 9 0
822       506149 8 9 0
823       117982 8 9 0
824       509804 419 4 0
825       146648 420 4 0
826       475213 421 4 0
827       463171 8 9 0
